Time (s),Channel 1 (V),Channel 2 (V)
-0.00512,0.76842979610796,-0.21055568711556033
-0.00511875,0.7724474757710225,-0.2061884369183891
-0.0051175,0.775460735518321,-0.2024930713669354
-0.00511625,0.7794784151813816,-0.2001414751069212
-0.005115,0.7824916749286783,-0.19611016723260927
-0.00511375,0.7855049346759752,-0.19342262864973467
-0.0051125,0.7898574209776261,-0.18972726309828206
-0.00511125,0.7928706807249215,-0.18737566683826787
-0.00511,0.7965535537493967,-0.1840162436096735
-0.00510875,0.7999016201352837,-0.17964899341250087
-0.0051075,0.8035844931597559,-0.1766255125067683
-0.00510625,0.807936979461408,-0.17192231998673652
-0.005105,0.810615432570115,-0.1692347814038631
-0.00510375,0.814967918871766,-0.16621130049812918
-0.0051025,0.8189855985348283,-0.16318781959239523
-0.00510125,0.8219988582821252,-0.1601643386866613
-0.0051,0.8243425047522437,-0.15680491545806954
-0.00509875,0.8283601844153072,-0.1527736075837561
-0.0050975,0.8330474773555482,-0.1490782420323021
-0.00509625,0.836395543741432,-0.14605476112656957
-0.005095,0.840748030043084,-0.14303128022083378
-0.00509375,0.8430916765132026,-0.1389999723465237
-0.0050925,0.8467745495376765,-0.13564054911793041
-0.00509125,0.8514618424779138,-0.13228112588933869
-0.00509,0.8554795221409783,-0.12690604872358793
-0.00508875,0.8581579752496853,-0.12522633710929207
-0.0050875,0.8618408482741604,-0.12220285620355734
-0.00508625,0.8655237212986366,-0.11783560600638379
-0.005085,0.8708806275160508,-0.11279647116349618
-0.00508375,0.8718850474318164,-0.11212458651777753
-0.0050825,0.8769071470106443,-0.1067495093520283
-0.00508125,0.8819292465894722,-0.10238225915485705
-0.00508,0.8836032797824142,-0.10003066289484283
-0.00507875,0.88929499263842,-0.09599935502052984
-0.0050775,0.8926430590243037,-0.09230398946907892
-0.00507625,0.8963259320487792,-0.08827268159476531
-0.005075,0.9006784183504317,-0.08524920068902984
-0.00507375,0.904361291374904,-0.0818897774604381
-0.0050725,0.9083789710379663,-0.0781944119089855
-0.00507125,0.9110574241466746,-0.07416310403467359
-0.00507,0.915075103809737,-0.07080368080608032
-0.00506875,0.9184231701956207,-0.0671083152546294
-0.0050675,0.9231104631358618,-0.06374889202603445
-0.00506625,0.9271281427989262,-0.05938164182886167
-0.005065,0.9318154357391636,-0.05602221860026993
-0.00506375,0.9338242755706967,-0.05299873769453446
-0.0050625,0.9381767618723457,-0.04963931446594272
-0.00506125,0.9425292481739965,-0.04527206426877147
-0.00506,0.9448728946441163,-0.04258452568589685
-0.00505875,0.9502298008615327,-0.03888916013444425
-0.0050575,0.9532430606088282,-0.03385002529155664
-0.00505625,0.9565911269947149,-0.031498429031539064
-0.005055,0.9619480332121332,-0.026123351865788305
-0.00505375,0.9659657128751937,-0.022763928637196562
-0.0050525,0.9693137792610811,-0.020412332377179446
-0.00505125,0.9736662655627301,-0.01638102450286935
-0.00505,0.9773491385872038,-0.013357543597135412
-0.00504875,0.9800275916959109,-0.008318408754247799
-0.0050475,0.9840452713589745,-0.005630870171370891
-0.00504625,0.9890673709378002,8.014931723506966e-05
-0.005045,0.9934198572394534,0.003439572545830936
-0.00504375,0.9967679236253404,0.005791168805848058
-0.0050425,1.0004507966498126,0.009822476680158147
-0.00504125,1.0037988630356978,0.012510015263032763
-0.00504,1.008820962614526,0.017213207783063338
-0.00503875,1.0125038356389997,0.021244515657375264
-0.0050375,1.0165215153020604,0.02527582353168536
-0.00503625,1.0191999684107704,0.027963362114561803
-0.005035,1.0238872613510075,0.03266655463459024
-0.00503375,1.0279049410140721,0.03602597786318565
-0.0050325,1.0319226206771366,0.0400572857374991
-0.00503125,1.0362751069787854,0.043416708966090845
-0.00503,1.0392883667260822,0.046440189871824786
-0.00502875,1.0439756596663217,0.05080744006899603
-0.0050275,1.0459844994978529,0.0541668632975893
-0.00502625,1.0506717924380902,0.05853411349475857
-0.005025,1.0556938920169203,0.06357324833765046
-0.00502375,1.0577027318484542,0.06458107530623103
-0.0050225,1.0633944447044565,0.070292094794837
-0.00502125,1.066742511090343,0.07230774873199479
-0.00502,1.0694209641990502,0.07633905660630488
-0.00501875,1.0744430637778781,0.08037036448061681
-0.0050175,1.078125936802352,0.08507355700064738
-0.00501625,1.0818088098268257,0.08708921093780335
-0.005015,1.0844872629355329,0.0914564611349726
-0.00501375,1.090178975791539,0.09582371133214584
-0.0050125,1.0921878156230718,0.09851124991502153
-0.00501125,1.0955358820089556,0.10086284617503576
-0.00501,1.1015624015035503,0.10523009637220868
-0.00500875,1.1042408546122573,0.1089254619236596
-0.0050075,1.1095977608296739,0.11329271212083085
-0.00500625,1.1126110205769706,0.11665213534942412
-0.005005,1.1162938936014446,0.12034750090087672
-0.00500375,1.120311573264505,0.1243788087751868
-0.0050025,1.1236596396503922,0.12841011664950056
-0.00500125,1.1266728993976909,0.1317695398780955
-0.005,1.130355772422163,0.13546490542954642
-0.00499875,1.1357126786395795,0.13815244401242102
-0.0049975,1.1387259383868762,0.14184780956387363
-0.00499625,1.14240881141135,0.14487129046960756
-0.004995,1.1457568777972338,0.14856665602105848
-0.00499375,1.1497745574602978,0.15259796389537209
-0.0049925,1.1527878172075932,0.15562144480110462
-0.00499125,1.157475110147834,0.15965275267541795
-0.00499,1.161157983172309,0.16334811822687131
-0.00498875,1.1635016296424274,0.16502782984116718
-0.0049875,1.1671845026669014,0.16973102236119775
-0.00498625,1.1708673756913752,0.17241856094407237
-0.004985,1.174550248715849,0.17678581114124362
-0.00498375,1.1792375416560863,0.17947334972411702
-0.0049825,1.1825856080419739,0.18350465759843015
-0.00498125,1.1852640611506837,0.18720002314988368
-0.00498,1.1886121275365673,0.1892156770870387
-0.00497875,1.1932994204768075,0.19425481192992955
-0.0049775,1.1949734536697496,0.19627046586708458
-0.00497625,1.1986563266942234,0.19962988909567786
-0.004975,1.2036784262730513,0.20366119696998977
-0.00497375,1.2073612992975251,0.2076925048443017
-0.0049725,1.2113789789605858,0.21071598575003425
-0.00497125,1.2130530121535301,0.21205975504147295
-0.00497,1.2170706918165943,0.2164270052386462
-0.00496875,1.221088371479655,0.22079425543581546
-0.0049675,1.2247712445041306,0.22314585169583212
-0.00496625,1.2287889241671912,0.2261693326015647
-0.004965,1.2307977639987224,0.22952875583015794
-0.00496375,1.2334762171074307,0.2315444097673139
-0.0049625,1.238833123324847,0.2365835446102038
-0.00496125,1.2415115764335543,0.24061485248451392
-0.00496,1.2448596428194407,0.24330239106739035
-0.00495875,1.2482077092053272,0.24733369894170276
-0.0049575,1.2508861623140344,0.24834152591028025
-0.00495625,1.253899422061331,0.2513650068160142
-0.004955,1.2579171017243935,0.25573225701318547
-0.00495375,1.2615999747488673,0.25875573791891937
-0.0049525,1.2642784278575745,0.2611073341789336
-0.00495125,1.2679613008820494,0.26446675740752795
-0.00495,1.2713093672679332,0.2681621229589789
-0.00494875,1.2743226270152315,0.2715215461875738
-0.0049475,1.2790099199554716,0.27521691173902746
-0.00494625,1.2806839531484135,0.2775685079990417
-0.004945,1.2820231797027677,0.27824039264476036
-0.00494375,1.2870452792815958,0.2832795274876503
-0.0049425,1.2893889257517155,0.2856311237476655
-0.00494125,1.2930717987761875,0.2893264892991165
-0.00494,1.2964198651620746,0.2923499702048521
-0.00493875,1.2997679315479584,0.29470156646486634
-0.0049375,1.3017767713794912,0.297389105047742
-0.00493625,1.305794451042555,0.3017563552449142
-0.004935,1.3091425174284388,0.3037720091820692
-0.00493375,1.31115135725997,0.3074673747335218
-0.0049325,1.3148342302844438,0.3094830286706778
-0.00493125,1.3178474900317407,0.3125065095764117
-0.00493,1.3201911365018593,0.3151940481592851
-0.00492875,1.3221999763333916,0.3162018751278643
-0.0049275,1.3262176559964554,0.31989724067931785
-0.00492625,1.3292309157437507,0.3219128946164729
-0.004925,1.331574562213871,0.3242644908764895
-0.00492375,1.3332485954068132,0.3272879717822221
-0.0049225,1.3372662750698756,0.3319911643022527
-0.00492125,1.3399447281785837,0.3346787028851273
-0.00492,1.343292794564469,0.3370302991451426
-0.00491875,1.3456364410345878,0.3387100107594384
-0.0049175,1.348314894143297,0.3410616070194545
-0.00491625,1.3499889273362415,0.34341320327947134
-0.004915,1.3540066069993022,0.34677262650806306
-0.00491375,1.3560154468308345,0.34979610741379746
-0.0049125,1.3590287065781301,0.35080393438237495
-0.00491125,1.3613723530482498,0.3538274152881089
-0.00491,1.3647204194341336,0.35718683851670063
-0.00490875,1.3670640659042548,0.3585306078081395
-0.0049075,1.369072905735785,0.36155408871387207
-0.00490625,1.3717513588444943,0.36390568497388875
-0.004905,1.3734253920374384,0.3652494542653274
-0.00490375,1.3767734584233222,0.36827293517105997
-0.0049025,1.3787822982548534,0.3709604737539346
-0.00490125,1.381125944724973,0.3723042430453719
-0.0049,1.3838043978336814,0.3756636662739652
-0.00489875,1.3858132376652117,0.37835120485683854
-0.0048975,1.3881568841353322,0.37935903182541775
-0.00489625,1.3908353372440394,0.3813746857625728
-0.004895,1.3931789837141604,0.383726282022589
-0.00489375,1.3955226301842811,0.3860778782826049
-0.0048925,1.3978662766543997,0.3874216475740416
-0.00489125,1.400544729763108,0.3911170131254942
-0.00489,1.401883956317462,0.3924607824169315
-0.00488875,1.4032231828718162,0.3934686093855095
-0.0048875,1.4059016359805234,0.39649209029124205
-0.00488625,1.40924970236641,0.3998515135198367
-0.004885,1.4109237355593536,0.400187455842697
-0.00488375,1.4136021886680608,0.402203109779852
-0.0048825,1.4146066085838267,0.40421876371700827
-0.00488125,1.415611028499592,0.4048906483627266
-0.00488,1.4186242882468887,0.40690630229988256
-0.00487875,1.4209679347170086,0.4095938408827572
-0.0048775,1.4226419679099511,0.4122813794656318
-0.00487625,1.4253204210186583,0.4139610910799277
-0.004875,1.426324840934425,0.4142970334027878
-0.00487375,1.4286684874045459,0.41765645663138196
-0.0048725,1.4310121338746644,0.419672110568537
-0.00487125,1.4316817471518426,0.42000805289139753
-0.00487,1.4340253936219611,0.42269559147427094
-0.00486875,1.4343602002605498,0.42269559147427094
-0.0048675,1.43636904009208,0.42403936076570764
-0.00486625,1.439047493200789,0.42639095702572355
-0.004865,1.4407215263937312,0.4280706686400194
-0.00486375,1.442060752948086,0.43008632257717616
-0.0048625,1.4440695927796179,0.4314300918686142
-0.00486125,1.4454088193339714,0.43310980348291006
-0.00486,1.447082852526914,0.4337816881286287
-0.00485875,1.448422079081268,0.436133284388644
-0.0048575,1.4490916923584451,0.436133284388644
-0.00485625,1.4511005321899755,0.4388208229715174
-0.004855,1.452774565382919,0.43915676529437797
-0.00485375,1.4541137919372724,0.4405005345858147
-0.0048525,1.4571270516845698,0.44251618852297125
-0.00485125,1.457461858323159,0.4441959001372686
-0.00485,1.459135891516101,0.4458756117515645
-0.00484875,1.4594706981546897,0.44688343872014247
-0.0048475,1.4614795379862209,0.44654749639728314
-0.00484625,1.462149151263398,0.4475553233658611
-0.004845,1.463153571179163,0.449235034980157
-0.00484375,1.4638231844563405,0.4495709773030171
-0.0048425,1.4661668309264604,0.450578804271596
-0.00484125,1.4668364442036372,0.45259445820875105
-0.00484,1.4678408641194032,0.4536022851773295
-0.00483875,1.46851047739658,0.454610112145907
-0.0048375,1.4698497039509342,0.45595388143734433
-0.00483625,1.4711889305052883,0.4572976507287816
-0.004835,1.4718585437824652,0.4576335930516409
-0.00483375,1.4731977703368186,0.4579695353745001
-0.0048325,1.4731977703368193,0.4583054776973596
-0.00483125,1.4752066101683508,0.4599851893116564
-0.00483,1.4758762234455276,0.46032113163451555
-0.00482875,1.476545836722705,0.46099301628023454
-0.0048275,1.4772154499998817,0.46166490092595286
-0.00482625,1.479224289831413,0.46267272789453084
-0.004825,1.4785546765542361,0.46300867021739
-0.00482375,1.47989390310859,0.4643524395088275
-0.0048225,1.480898323024355,0.46368055486310916
-0.00482125,1.4808983230243555,0.4643524395088275
-0.00482,1.4819027429401213,0.46603215112312446
-0.00481875,1.4819027429401213,0.4667040357688428
-0.0048175,1.4829071628558868,0.4667040357688428
-0.00481625,1.4822375495787097,0.46636809344598346
-0.004815,1.4832419694944754,0.4683837473831394
-0.00481375,1.4839115827716522,0.4670399780917027
-0.0048125,1.4835767761330638,0.4670399780917021
-0.00481125,1.485250809326006,0.46905563202885714
-0.00481,1.485585615964595,0.46871968970599875
-0.00480875,1.486255229241772,0.4687196897059991
-0.0048075,1.485585615964595,0.4693915743517174
-0.00480625,1.4865900358803608,0.4693915743517174
-0.004805,1.4862552292417721,0.46972751667457674
-0.00480375,1.4862552292417721,0.4693915743517174
-0.0048025,1.4865900358803605,0.4703994013202949
-0.00480125,1.4882640690733033,0.47039940132029534
-0.0048,1.487259649157538,0.470063458997436
-0.00479875,1.487929262434715,0.470063458997436
-0.0047975,1.486924842518949,0.47039940132029473
-0.00479625,1.4865900358803608,0.4690556320288581
-0.004795,1.487929262434715,0.471071285966014
-0.00479375,1.4869248425189492,0.470063458997436
-0.0047925,1.4865900358803608,0.4693915743517174
-0.00479125,1.486924842518949,0.46905563202885825
-0.00479,1.4882640690733033,0.46972751667457674
-0.00478875,1.4879292624347147,0.47006345899743585
-0.0047875,1.4872596491575378,0.46972751667457674
-0.00478625,1.486924842518949,0.4690556320288573
-0.004785,1.4865900358803608,0.46737592041456144
-0.00478375,1.4862552292417721,0.46771186273742077
-0.0047825,1.4865900358803605,0.46804780506027993
-0.00478125,1.4862552292417721,0.4680478050602801
-0.00478,1.4855856159645953,0.46771186273742094
-0.00477875,1.4852508093260066,0.4680478050602801
-0.0047775,1.4842463894102407,0.4660321511231243
-0.00477625,1.4839115827716525,0.46636809344598346
-0.004775,1.4825723562172983,0.4643524395088275
-0.00477375,1.4832419694944754,0.4643524395088275
-0.0047725,1.4829071628558868,0.4646883818316868
-0.00477125,1.4829071628558868,0.4636805548631093
-0.00477,1.4808983230243555,0.46267272789453084
-0.00476875,1.4808983230243555,0.4643524395088267
-0.0047675,1.4802287097471785,0.46166490092595286
-0.00476625,1.4792242898314132,0.46032113163451555
-0.004765,1.47989390310859,0.46032113163451555
-0.00476375,1.4782198699156475,0.45931330466593756
-0.0047625,1.4778850632770588,0.4596492469887969
-0.00476125,1.4772154499998817,0.45796953537450025
-0.00476,1.4758762234455283,0.45662576608306354
-0.00475875,1.4752066101683505,0.45628982376020366
-0.0047575,1.4742021902525844,0.45494605446876574
-0.00475625,1.4725281570596422,0.45360228517732903
-0.004755,1.4725281570596416,0.4532663428544691
-0.00475375,1.4708541238666997,0.4519225735630324
-0.0047525,1.4705193172281112,0.4509147465944544
-0.00475125,1.469180090673757,0.44923503498015777
-0.00475,1.467840864119403,0.4482272080115798
-0.00474875,1.4675060574808145,0.4482272080115798
-0.0047475,1.465497217649283,0.4472193810430018
-0.00474625,1.4641579910949287,0.4455396694287048
-0.004745,1.4638231844563405,0.4448677847829865
-0.00474375,1.462483957901986,0.44285213084582997
-0.0047425,1.4614795379862209,0.44150836155439327
-0.00474125,1.459135891516101,0.4394927076172373
-0.00474,1.458131471600336,0.43848488064865976
-0.00473875,1.4577966649617469,0.4384848806486593
-0.0047375,1.4557878251302165,0.43680516903436345
-0.00473625,1.4547834052144502,0.4357973420657847
-0.004735,1.4531093720215067,0.434453572774346
-0.00473375,1.4511005321899764,0.4314300918686134
-0.0047325,1.4497613056356222,0.4314300918686134
-0.00473125,1.4480872724426794,0.42874255328573885
-0.00473,1.447082852526914,0.42739878399430153
-0.00472875,1.445408819333972,0.42571907238000567
-0.0047275,1.4444043994182056,0.4243753030885676
-0.00472625,1.4417259463094985,0.42202370682855334
-0.004725,1.441391139670909,0.42168776450569295
-0.00472375,1.4400519131165535,0.4203439952142546
-0.0047225,1.437038653369258,0.41799239895424034
-0.00472125,1.435699426814904,0.41698457198566236
-0.00472,1.4336905869833727,0.41530486037136577
-0.00471875,1.43201655379043,0.4119454371427725
-0.0047175,1.4310121338746649,0.41093761017419494
-0.00471625,1.4286684874045448,0.4099297832056165
-0.004715,1.4266596475730124,0.4079141292684595
-0.00471375,1.4243160011028937,0.40556253300844525
-0.0047125,1.4233115811871262,0.40354687907128767
-0.00471125,1.4189590948854773,0.3998515135198367
-0.00471,1.4199635148012428,0.4008593404884147
-0.00470875,1.4166154484153575,0.39682803261410277
-0.0047075,1.4152762218610033,0.3958202056455248
-0.00470625,1.4125977687522964,0.39346860938551054
-0.004705,1.4112585421979411,0.3924607824169315
-0.00470375,1.409919315643586,0.39111701312549324
-0.0047025,1.4079104758120558,0.38910135918833827
-0.00470125,1.4042276027875809,0.38540599363688427
-0.0047,1.4015491496788737,0.3823825127311517
-0.00469875,1.4008795364016966,0.3810387434397144
-0.0046975,1.3975314700158128,0.378351204856841
-0.00469625,1.3958574368228687,0.37633555091968385
-0.004695,1.39351379035275,0.374655839305388
-0.00469375,1.3921745637983947,0.3733120700139499
-0.0046925,1.3888264974125084,0.3702885891082147
-0.00469125,1.3868176575809783,0.3676010505253413
-0.00469,1.3838043978336814,0.36457756961960736
-0.00468875,1.3817955580021501,0.36256191568245144
-0.0046875,1.3787822982548534,0.3598743770995768
-0.00468625,1.3777778783390884,0.35953843477671765
-0.004685,1.374764618591791,0.3551711845795462
-0.00468375,1.3714165522059072,0.3538274152881095
-0.0046825,1.369742519012963,0.35080393438237495
-0.00468125,1.366729259265666,0.34845233812235876
-0.00468,1.3657248393499006,0.34643668418520374
-0.00467875,1.3630463862411923,0.3434132032794698
-0.0046775,1.3600331264938956,0.34072566469659515
-0.00467625,1.3573546733851873,0.3387100107594392
-0.004675,1.3546762202764802,0.336358414499425
-0.00467375,1.351328153890594,0.3336708759165493
-0.0046725,1.3483148941432959,0.33064739501081414
-0.00467125,1.3459712476731773,0.32795985642794073
-0.00467,1.3416187613715258,0.32392854855362824
-0.00466875,1.3402795348171723,0.32258477926219153
-0.0046675,1.337601081708464,0.31922535603359825
-0.00466625,1.3339182086839902,0.31687375977358295
-0.004665,1.331909368852459,0.31351433654498967
-0.00466375,1.3292309157437519,0.3108267979621163
-0.0046625,1.326887269273631,0.30813925937924047
-0.00466125,1.3245436228035092,0.30645954776494244
-0.00466,1.3201911365018604,0.3034360668592099
-0.00465875,1.3178474900317394,0.3004125859534747
-0.0046575,1.3148342302844438,0.29772504737060135
-0.00465625,1.31115135725997,0.2936937394962894
-0.004655,1.3091425174284388,0.2910062009134148
-0.00465375,1.3057944510425534,0.2889905469762588
-0.0046525,1.3031159979338465,0.2856311237476671
-0.00465125,1.3007723514637255,0.28260764284193163
-0.00465,1.2974242850778384,0.2792482196133373
-0.00464875,1.2937414120533663,0.27689662335332305
-0.0046475,1.2907281523060696,0.27454502709330775
-0.00464625,1.2883845058359498,0.2711856038647145
-0.004645,1.284032019534299,0.26782618063612124
-0.00464375,1.2826927929799454,0.26480269973038867
-0.0046425,1.278340306678294,0.26110733417893467
-0.00464125,1.27499224029241,0.2580838532732021
-0.00464,1.272648593822289,0.25640414165890413
-0.00463875,1.2699701407135784,0.2533806607531682
-0.0046375,1.265282847773341,0.2490134105559989
-0.00463625,1.261934781387456,0.2463258719731243
-0.004635,1.2592563282787477,0.24296644874453102
-0.00463375,1.2562430685314507,0.23960702551593777
-0.0046325,1.2518905822298019,0.23591165996448685
-0.00463125,1.2498817423982687,0.23456789067304787
-0.00463,1.2451944494580285,0.22952875583015672
-0.00462875,1.2431856096264982,0.22684121724728334
-0.0046275,1.2405071565177888,0.22448962098726682
-0.00462625,1.23816351004767,0.22180208240439342
-0.004625,1.2328066038302536,0.21709888988436285
-0.00462375,1.2281193108900141,0.21340352433291027
-0.0046225,1.226110471058483,0.21004410110431698
-0.00462125,1.221757984756834,0.2060127932300069
-0.00462,1.2194143382867124,0.20466902393856776
-0.00461875,1.21506185198506,0.1999658314185358
