Time (s),Channel 1 (V),Channel 2 (V)
-0.005119910714285715,-0.3424586307287884,-0.30058822964185994
-0.0051186607142857145,-0.34044979089725724,-0.2979006910589853
-0.005117410714285714,-0.33777133778854773,-0.29554909479896824
-0.005116160714285715,-0.3350928846798407,-0.29151778692465813
-0.005114910714285714,-0.33007078510101273,-0.28815836369606485
-0.005113660714285715,-0.32940117182383566,-0.28715053672748686
-0.005112410714285714,-0.32504868552218474,-0.283119228853175
-0.005111160714285715,-0.32303984569065447,-0.28043169027030157
-0.005109910714285714,-0.31835255275041413,-0.27572849775026975
-0.005108660714285714,-0.3160089062802933,-0.2737128438131127
-0.0051074107142857145,-0.3136652598101747,-0.2713612475530985
-0.005106160714285714,-0.3103171934242879,-0.2676658820016444
-0.005104910714285715,-0.30696912703840407,-0.26430645877305264
-0.005103660714285714,-0.3036210606525187,-0.2612829778673187
-0.005102410714285715,-0.30060780090522193,-0.25825949696158473
-0.005101160714285714,-0.29859896107369077,-0.2559079007015695
-0.005099910714285715,-0.29357686149486506,-0.25120470818154106
-0.005098660714285714,-0.29123321502474303,-0.2488531119215236
-0.005097410714285714,-0.2878851486388565,-0.24616557333864778
-0.0050961607142857145,-0.2852066955301495,-0.24347803475577437
-0.005094910714285714,-0.2811890158670859,-0.2391107845586019
-0.005093660714285715,-0.2785105627583788,-0.2364232459757285
-0.005092410714285714,-0.27650172292684766,-0.2350794766842912
-0.005091160714285715,-0.2718144299866103,-0.2297043995185444
-0.005089910714285714,-0.26880117023931144,-0.22701686093566736
-0.005088660714285715,-0.26545310385342763,-0.2236574377070756
-0.0050874107142857145,-0.2607658109131867,-0.22029801447848082
-0.005086160714285714,-0.25775255116588836,-0.21626670660416705
-0.0050849107142857146,-0.25440448478000455,-0.21223539872985697
-0.005083660714285714,-0.25206083830988485,-0.21055568711556033
-0.005082410714285715,-0.2487127719239995,-0.20686032156410775
-0.005081160714285714,-0.24502989889952564,-0.2038368406583738
-0.005079910714285715,-0.2420166391522302,-0.20081335975264125
-0.005078660714285714,-0.23866857276634354,-0.19611016723260927
-0.005077410714285715,-0.2329768599103411,-0.19241480168115838
-0.0050761607142857145,-0.23130282671739583,-0.19073509006686004
-0.005074910714285714,-0.22661553377715488,-0.18703972451540546
-0.005073660714285715,-0.22326746739127107,-0.1826724743182362
-0.005072410714285714,-0.22092382092115134,-0.1799849357353616
-0.005071160714285715,-0.2172409478966775,-0.17561768553819032
-0.005069910714285714,-0.21355807487220366,-0.17225826230959707
-0.005068660714285715,-0.20987520184773148,-0.1692347814038645
-0.005067410714285714,-0.20652713546184448,-0.16553941585241053
-0.005066160714285714,-0.2018398425216037,-0.16217999262381602
-0.0050649107142857145,-0.19882658277430826,-0.15949245404094264
-0.005063660714285714,-0.19648293630418656,-0.1568049154580657
-0.005062410714285715,-0.19213045000253762,-0.15176578061517812
-0.005061160714285714,-0.18811277033947524,-0.1487422997094442
-0.005059910714285715,-0.1844298973150014,-0.14504693415799158
-0.005058660714285714,-0.18007741101335048,-0.14067968396082034
-0.005057410714285715,-0.17706415126605504,-0.13698431840936942
-0.005056160714285714,-0.17371608488016838,-0.13496866447221179
-0.005054910714285714,-0.16936359857851563,-0.13127329892075687
-0.0050536607142857145,-0.16534591891545508,-0.12623416407786928
-0.005052410714285714,-0.1630022724453337,-0.12354662549499343
-0.005051160714285715,-0.1593193994208615,-0.12085908691212002
-0.005049910714285714,-0.15429729984203353,-0.1154840097463708
-0.005048660714285715,-0.15128404009473811,-0.1127964711634974
-0.005047410714285714,-0.1476011670702629,-0.10943704793490291
-0.005046160714285715,-0.14492271396155587,-0.10540574006059282
-0.0050449107142857144,-0.13990061438272666,-0.10137443218627906
-0.005043660714285714,-0.136217741358251,-0.09801500895768427
-0.0050424107142857146,-0.13220006169519044,-0.09465558572909252
-0.005041160714285714,-0.1285171886707166,-0.09062427785478061
-0.005039910714285715,-0.12416470236906568,-0.08625702765760936
-0.005038660714285714,-0.12048182934459184,-0.08356948907473474
-0.005037410714285715,-0.11746856959729643,-0.08088195049186135
-0.005036160714285714,-0.1137856965728212,-0.07651470029468888
-0.005034910714285715,-0.11010282354834904,-0.07349121938895631
-0.0050336607142857145,-0.10575033724669644,-0.06912396919178368
-0.005032410714285714,-0.10240227086080883,-0.06542860364032956
-0.005031160714285715,-0.09738017128198315,-0.06206918041173781
-0.005029910714285714,-0.09302768498033223,-0.057365987891707236
-0.005028660714285715,-0.09001442523303545,-0.054342506985973295
-0.005027410714285714,-0.0863315522085616,-0.0506471414345207
-0.005026160714285715,-0.0813094526297359,-0.04594394891449226
-0.005024910714285714,-0.0789658061596139,-0.04292046800875618
-0.005023660714285714,-0.07461331985796116,-0.0398969871030201
-0.0050224107142857145,-0.07059564019490061,-0.03519379458299166
-0.005021160714285714,-0.06691276717042446,-0.03183437135439702
-0.005019910714285715,-0.06189066759159878,-0.02881089044866445
-0.005018660714285714,-0.059212214482890525,-0.024107697928633876
-0.005017410714285715,-0.05485972818123962,-0.020748274700040606
-0.005016160714285714,-0.05084204851817723,-0.01671696682572868
-0.005014910714285715,-0.0464895622165283,-0.01335754359713694
-0.005013660714285714,-0.04347630246922953,-0.009998120368542142
-0.005012410714285714,-0.039793429444753704,-0.005630870171369516
-0.0050111607142857145,-0.035440943143104774,-0.002607389265636949
-0.005009910714285714,-0.030753650202863952,0.002095803254395156
-0.005008660714285715,-0.027740390455568538,0.0054552264829868975
-0.005007410714285714,-0.024727130708271754,0.008142765065861512
-0.005006160714285715,-0.019035417852266714,0.012174072940173437
-0.005004910714285714,-0.015352544827792865,0.016877265460204016
-0.005003660714285715,-0.01066525188755555,0.020908573334514104
-0.0050024107142857144,-0.007651992140256633,0.024267996563109205
-0.005001160714285714,-0.004973539031546248,0.026955535145985657
-0.0049999107142857145,-0.0002862460913089348,0.030986843020295744
-0.004998660714285714,0.003731433571753446,0.03501815089460767
-0.004997410714285715,0.008753533150581423,0.03904945876891959
-0.004996160714285714,0.01176679289787821,0.04240888199751286
-0.004994910714285715,0.014780052645173625,0.04610424754896378
-0.004993660714285714,0.019132538946825907,0.04946367077755873
-0.004992410714285715,0.02381983188706322,0.053830920974728
-0.0049911607142857145,0.02783751155012773,0.05819817117190123
-0.004989910714285714,0.03185519121319163,0.0618935367233552
-0.004988660714285715,0.03520325759907543,0.06491701762908776
-0.004987410714285714,0.03855132398496075,0.06894832550339969
-0.004986160714285715,0.04256900364802313,0.07197180640913363
-0.004984910714285714,0.04658668331108551,0.07499528731486757
-0.004983660714285715,0.051608782889911206,0.08003442215775519
-0.004982410714285714,0.0559612691915644,0.08372978770921008
-0.004981160714285714,0.05897452893886286,0.08809703790638239
-0.0049799107142857145,0.06265740196333504,0.09044863416639662
-0.004978660714285714,0.06634027498781041,0.0944799420407096
-0.004977410714285715,0.0696883413736942,0.09683153830072383
-0.004976160714285714,0.07437563431393365,0.1015347308207544
-0.004974910714285715,0.07839331397699603,0.10590198101792565
-0.004973660714285714,0.08174138036288135,0.10993328889223758
-0.004972410714285715,0.08475464011017676,0.11161300050653344
-0.004971160714285714,0.08977673968900611,0.11631619302656479
-0.004969910714285714,0.09379441935207002,0.11967561625515913
-0.0049686607142857145,0.09714248573795381,0.12202721251517334
-0.004967410714285714,0.10149497203960671,0.12572257806662823
-0.004966160714285715,0.10584745834125563,0.13076171290951583
-0.004964910714285714,0.10886071808855242,0.13479302078382777
-0.004963660714285715,0.11220878447443773,0.13714461704384304
-0.004962410714285714,0.11656127077608865,0.14117592491815498
-0.004961160714285715,0.12024414380056082,0.14419940582388752
-0.0049599107142857144,0.12493143674080194,0.1489025983439195
-0.004958660714285714,0.12894911640386555,0.15226202157251414
-0.0049574107142857145,0.1316275695125726,0.1552855024782467
-0.004956160714285714,0.1349756358984579,0.15864492570683997
-0.004954910714285715,0.13932812220010882,0.16334811822687054
-0.004953660714285714,0.14267618858599415,0.16569971448688584
-0.004952410714285715,0.1466938682490547,0.16939508003833673
-0.004951160714285714,0.15104635455070745,0.17208261862121305
-0.004949910714285715,0.15439442093659123,0.17577798417266394
-0.0049486607142857145,0.15841210059965513,0.17880146507839959
-0.004947410714285714,0.1627645869013077,0.18316871527557235
-0.004946160714285715,0.1664474599257799,0.1865281385041641
-0.004944910714285714,0.16879110639589961,0.18955161940989804
-0.004943660714285715,0.1738132059747276,0.1949266965756473
-0.004942410714285714,0.1771612723606129,0.19795017748138122
-0.004941160714285715,0.1808441453850851,0.19962988909567708
-0.004939910714285714,0.18385740513238355,0.20298931232427112
-0.004938660714285715,0.1878750847954441,0.20634873555286287
-0.0049374107142857145,0.19155795781991977,0.2103800434271763
-0.004936160714285714,0.19457121756721824,0.21340352433291196
-0.004934910714285715,0.1982540905916904,0.21709888988436285
-0.004933660714285714,0.2022717702547528,0.2201223707900968
-0.004932410714285715,0.20561983664063813,0.2228099093729714
-0.004931160714285714,0.21030712958087755,0.2261693326015647
-0.004929910714285715,0.21231596941240782,0.22919281350729723
-0.004928660714285714,0.21532922915970554,0.23288817905875123
-0.004927410714285714,0.22001652209994682,0.23624760228734587
-0.0049261607142857145,0.22403420176300737,0.23927108319307844
-0.004924910714285714,0.22771707478748227,0.2422945640988142
-0.004923660714285715,0.23006072125760094,0.2463258719731243
-0.004922410714285714,0.2347480141978404,0.2503571798474362
-0.004921160714285715,0.23709166066796009,0.25304471843031084
-0.004919910714285714,0.2411093403310225,0.25539631469032614
-0.004918660714285715,0.24512701999408304,0.25909168024177703
-0.0049174107142857144,0.24680105318702752,0.260435449533216
-0.004916160714285714,0.25048392621150317,0.26379487276181113
-0.0049149107142857145,0.2545016058745637,0.26782618063612124
-0.004913660714285714,0.2575148656218625,0.27084966154185686
-0.004912410714285715,0.2618673519235114,0.27454502709330775
-0.004911160714285714,0.2645458050322197,0.27790445032190103
-0.004909910714285715,0.26822867805669187,0.27924821961333773
-0.004908660714285714,0.27090713116540177,0.2836154698105096
-0.004907410714285715,0.2742551975512856,0.28630300839338296
-0.0049061607142857145,0.27659884402140683,0.2889905469762588
-0.004904910714285714,0.2816209436002362,0.2930218548505712
-0.004903660714285715,0.2846342033475316,0.29402968181914874
-0.004902410714285714,0.2873126564562398,0.2970531627248827
-0.004901160714285715,0.29066072284212513,0.29974070130775726
-0.004899910714285714,0.2930043693122449,0.3034360668592099
-0.004898660714285715,0.2973568556138938,0.30645954776494244
-0.004897410714285714,0.30003530872260403,0.30914708634781846
-0.004896160714285715,0.3040529883856646,0.31217056725355097
-0.0048949107142857145,0.3067314414943747,0.31452216351356765
-0.004893660714285714,0.30907508796449623,0.31821752906502165
-0.004892410714285715,0.3130927676275568,0.3212410099707542
-0.004891160714285714,0.315771220736265,0.32392854855362885
-0.004889910714285715,0.31778006056779623,0.3252723178450661
-0.004888660714285714,0.320793320315093,0.3286317410736594
-0.004887410714285715,0.32481099997815355,0.33098333733367363
-0.004886160714285714,0.3278242597254522,0.33400681823940864
-0.004884910714285714,0.3308375194727502,0.3366943568222843
-0.0048836607142857145,0.3335159725814572,0.3390459530822985
-0.004882410714285714,0.33652923232875537,0.34072566469659715
-0.004881160714285715,0.3395424920760508,0.3450929148937664
-0.004879910714285714,0.3408817186304049,0.34677262650806306
-0.004878660714285715,0.3452342049320558,0.35013204973665635
-0.004877410714285714,0.3485822713179412,0.3524836459966716
-0.004876160714285715,0.3512607244266482,0.3544992999338266
-0.0048749107142857144,0.35393917753535764,0.3571868385167022
-0.004873660714285714,0.3562828240054788,0.35886655013100005
-0.0048724107142857145,0.35929608375277416,0.36155408871387346
-0.004871160714285714,0.3616397302228951,0.3635697426510305
-0.004869910714285715,0.36431818333160215,0.36592133891104467
-0.004868660714285714,0.36666182980172185,0.3689448198167786
-0.004867410714285715,0.370344702826194,0.3706245314310745
-0.004866160714285714,0.37168392938054984,0.3733120700139499
-0.004864910714285715,0.3746971891278452,0.37566366627396414
-0.0048636607142857145,0.37771044887514343,0.37801526253398043
-0.004862410714285714,0.3797192887066758,0.37969497414827813
-0.0048611607142857146,0.38239774181538283,0.3820465704082924
-0.004859910714285714,0.38541100156267966,0.38507005131402633
-0.004858660714285715,0.38775464803279935,0.3874216475740416
-0.004857410714285714,0.38976348786433057,0.38876541686547894
-0.004856160714285715,0.3924419409730376,0.39111701312549313
-0.004854910714285714,0.39512039408174704,0.3934686093855095
-0.004853660714285715,0.39746404055186574,0.3954842633226645
-0.0048524107142857145,0.39947288038339795,0.3971639749369621
-0.004851160714285714,0.4028209467692841,0.39985151351983717
-0.004849910714285715,0.40449497996222594,0.4008593404884147
-0.004848660714285714,0.4068386264323457,0.40321093674843
-0.004847410714285715,0.40884746626387686,0.40421876371700793
-0.004846160714285714,0.41052149945681954,0.40657035997702323
-0.004844910714285715,0.41386956584270335,0.40925789855989664
-0.004843660714285714,0.4165480189514131,0.41160949481991316
-0.004842410714285714,0.41721763222859093,0.41194543714277343
-0.0048411607142857145,0.41889166542153283,0.41396109107992846
-0.004839910714285714,0.4219049251688304,0.41631268733994437
-0.004838660714285715,0.4235789583617723,0.417656456631381
-0.004837410714285714,0.42759663802483466,0.42067993753711497
-0.004836160714285715,0.42893586457918875,0.4220237068285523
-0.004834910714285714,0.4312795110493085,0.42504718773428624
-0.004833660714285715,0.432618737603662,0.4247112454114271
-0.0048324107142857144,0.43328835088083967,0.42538313005714556
-0.004831160714285714,0.4356319973509608,0.4263909570257251
-0.0048299107142857145,0.4386452570982562,0.42975038025431683
-0.004828660714285714,0.4396496770140232,0.43042226490003727
-0.004827410714285715,0.44266293676131857,0.4344535727743474
-0.004826160714285714,0.44333255003849564,0.4344535727743474
-0.004824910714285715,0.4453413898700259,0.4364692267115024
-0.004823660714285714,0.4460110031472039,0.4357973420657847
-0.004822410714285715,0.4480198429787342,0.43814893832579893
-0.0048211607142857145,0.4520375226417975,0.44117241923153394
-0.004819910714285714,0.452707135918975,0.44117241923153455
-0.0048186607142857146,0.4537115558347401,0.44251618852297125
-0.004817410714285714,0.45605520230485985,0.4438599578144085
-0.004816160714285715,0.4567248155820369,0.4458756117515645
-0.004814910714285714,0.4587336554135681,0.44688343872014247
-0.004813660714285715,0.46040768860651,0.44621155407442414
-0.004812410714285714,0.46174691516086486,0.44923503498015777
-0.004811160714285715,0.46241652843804165,0.4512506889173128
-0.0048099107142857145,0.4640905616309846,0.45125068891731374
-0.004808660714285714,0.46643420810110536,0.4525944582087518
-0.004807410714285715,0.46877785457122406,0.4542741698230477
-0.004806160714285714,0.46944746784840113,0.454610112145907
-0.004804910714285715,0.4707866944027552,0.4552819967916257
-0.004803660714285714,0.4707866944027552,0.45696170840592226
-0.004802410714285715,0.4717911143185204,0.4566257660830631
-0.004801160714285714,0.4741347607886406,0.4583054776973596
-0.004799910714285714,0.4748043740658182,0.4586414200202195
-0.0047986607142857145,0.47614360062017175,0.4599851893116562
-0.004797410714285714,0.47781763381311504,0.46300867021738973
-0.004796160714285715,0.4791568603674685,0.4620008432488122
-0.004794910714285714,0.4808308935604112,0.46267272789453084
-0.004793660714285715,0.48116570019899974,0.4633446125402495
-0.004792410714285714,0.4818353134761768,0.46536026647740547
-0.004791160714285715,0.4828397333919419,0.46536026647740547
-0.004789910714285714,0.4841789599462965,0.4660321511231241
-0.004788660714285714,0.48484857322347374,0.4653602664774059
-0.0047874107142857145,0.4851833798620621,0.46636809344598346
-0.004786160714285714,0.4868574130550052,0.46804780506028054
-0.004784910714285715,0.48786183297077035,0.4690556320288581
-0.004783660714285714,0.4885314462479474,0.4683837473831394
-0.004782410714285715,0.4892010595251242,0.46972751667457613
-0.004781160714285714,0.48987067280230157,0.470063458997436
-0.004779910714285715,0.49054028607947836,0.4690556320288585
-0.0047786607142857145,0.49120989935665565,0.4714072282888733
-0.004777410714285714,0.4928839325495985,0.4720791129345918
-0.0047761607142857146,0.49321873918818687,0.47174317061173265
-0.004774910714285714,0.4942231591039525,0.4724150552574513
-0.004773660714285715,0.4942231591039525,0.4714072282888733
-0.004772410714285714,0.494557965742541,0.4724150552574513
-0.004771160714285715,0.4948927723811294,0.47308693990316963
-0.004769910714285714,0.49556238565830657,0.4724150552574513
-0.004768660714285715,0.49556238565830657,0.47308693990316963
-0.0047674107142857145,0.4969016122126607,0.4747666515174666
-0.004766160714285714,0.4969016122126607,0.47375882454888846
-0.004764910714285715,0.4969016122126607,0.4734228822260293
-0.004763660714285714,0.4985756454056034,0.4744307091946073
-0.004762410714285715,0.4975712254898378,0.47308693990316997
-0.004761160714285714,0.49824083876701486,0.47308693990316997
-0.004759910714285715,0.49857564540560323,0.4740947668717475
-0.004758660714285714,0.49924525868278047,0.47308693990316997
-0.004757410714285714,0.49891045204419193,0.4737588245488882
-0.0047561607142857145,0.49891045204419193,0.47275099758031064
-0.004754910714285714,0.5005844852371346,0.4737588245488888
-0.004753660714285715,0.5005844852371346,0.47409476687174795
-0.004752410714285714,0.4985756454056034,0.4724150552574513
-0.004751160714285715,0.5002496785985461,0.47174317061173265
-0.004749910714285714,0.49958006532136895,0.47275099758031064
-0.004748660714285715,0.4999148719599573,0.47275099758031064
-0.004747410714285714,0.5002496785985461,0.472079112934592
-0.004746160714285714,0.49958006532136895,0.47174317061173265
-0.0047449107142857145,0.49958006532136895,0.47174317061173265
-0.004743660714285714,0.4992452586827797,0.4707353436431539
-0.004742410714285715,0.4975712254898378,0.4690556320288581
-0.004741160714285714,0.4985756454056034,0.470063458997436
-0.004739910714285715,0.4992452586827802,0.4697275166745769
-0.004738660714285714,0.4975712254898378,0.4683837473831394
-0.004737410714285715,0.4975712254898378,0.4683837473831394
-0.0047361607142857145,0.49824083876701486,0.4690556320288581
-0.004734910714285714,0.4975712254898376,0.4670399780917021
-0.0047336607142857146,0.49723641885124925,0.4670399780917021
-0.004732410714285714,0.4969016122126607,0.46536026647740547
-0.004731160714285715,0.49623199893548364,0.4660321511231241
-0.004729910714285714,0.49556238565830657,0.46502432415454614
-0.004728660714285715,0.49556238565830657,0.464688381831687
-0.004727410714285714,0.4942231591039525,0.4633446125402495
-0.004726160714285715,0.49288393254959895,0.4620008432488128
-0.0047249107142857145,0.4935535458267754,0.46132895860309353
-0.004723660714285714,0.49254912591100997,0.46032113163451555
-0.004722410714285715,0.49288393254959834,0.46032113163451555
-0.004721160714285714,0.4918795126338327,0.4596492469887969
-0.004719910714285715,0.49221431927242126,0.4586414200202189
-0.004718660714285714,0.48953586616371303,0.4576335930516409
