Time (s),Channel 1 (V),Channel 2 (V)
-0.04267762765285996,0.2380987066799398,0.2310116551369389
-0.04266720765285996,0.3998690095243931,0.2619981387829507
-0.04265678765285996,0.5492212600758075,0.2997948386148992
-0.04264636765285996,0.6831348510197888,0.3634703599534532
-0.04263594765285996,0.7972466829018202,0.4506411271334821
-0.04262552765285996,0.8882005253725279,0.5384929159321381
-0.04261510765285996,0.9533113941522455,0.6113622291216605
-0.04260468765285996,0.9905655510313623,0.6620983397068887
-0.04259426765285996,0.9999629960098996,0.687636650404186
-0.04258384765285996,0.9798256139130705,0.6862746071669978
-0.04257342765285996,0.9318315199156278,0.6580122099953478
-0.04256300765285996,0.856651960087466,0.6042115021264238
-0.04255258765285996,0.7566362956731594,0.5275965700345586
-0.04254216765285996,0.6344695109524519,0.4332750758593357
-0.04253174765285996,0.4945147053795534,0.3249926385029427
-0.04252132765285996,0.3394568632339059,0.1921934228770681
-0.04251090765285996,0.1746659530748546,0.05837267482335182
-0.04250048765285996,0.004840697391518901,-0.05740100033767029
-0.04249006765285996,-0.1649845582916624,-0.1588732215081266
-0.04247964765285996,-0.3304467145205328,-0.1932648132471068
-0.04246922765285996,-0.4865114257710333,-0.20484218076322
-0.04245880765285996,-0.6278087234837839,-0.2024586050981411
-0.04244838765285996,-0.7509823773093884,-0.1864545970611826
-0.04243796765285996,-0.8530117799333224,-0.1667049701219573
-0.04242754765285996,-0.9298694549362432,-0.1394641053781856
-0.04241712765285996,-0.9805485332132399,-0.1115422190158453
-0.04240670765285996,-1.002699653519742,-0.08293931103491126
-0.04239628765285996,-0.9959871928208088,-0.05093129496098137
-0.04238586765285996,-0.9604111511164108,-0.02369043021722232
-0.04237544765285996,-0.897314020546306,0.008998607475301394
-0.04236502765285996,-0.8083739162853514,0.03726100464693856
-0.04235460765285996,-0.6959401995781067,0.06688544505576305
-0.04234418765285996,-0.563704723808878,0.09685039627391148
-0.04233376765285996,-0.41502371932729,0.1237507502083735
-0.04232334765285996,-0.2539246625526574,0.1520131473800236
-0.04231292765285996,-0.08611314507908185,0.1802755445516736
-0.04230250765285996,0.08471897970909445,0.2054733444396643
-0.04229208765285996,0.2525304971825938,0.2354382956577857
-0.04228166765285996,0.4132939309222061,0.2643817144480165
-0.04227124765285996,0.5619749354038672,0.3038809683264803
-0.04226082765285996,0.6942104111730448,0.3709615977579869
-0.04225040765285996,0.8063085048453933,0.4584728757473129
-0.04223998765285996,0.8949129860714412,0.5456436429273419
-0.04222956765285996,0.9576744936065745,0.6168104020704345
-0.04221914765285996,0.9929149122760094,0.6655034477998816
-0.04220872765285996,0.9992917499400052,0.6883176720227799
-0.04219830765285996,0.9768050065985462,0.6849125639298099
-0.04218788765285996,0.9261259283215263,0.654607101902378
-0.04217746765285996,0.8485970072486881,0.5984228183683393
-0.04216704765285996,0.7469032276597476,0.5197648214207706
-0.04215662765285996,0.6227227047293581,0.4237407731990638
-0.04214620765285996,0.4810897839816038,0.3144368034146869
-0.04213578765285996,0.3256963188010727,0.1792540121237826
-0.04212536765285996,0.1595629165022328,0.04781683973514519
-0.04211494765285996,-0.009926716146078526,-0.06795683542583078
-0.04210452765285996,-0.180087594864359,-0.1650024160754855
-0.04209410765285996,-0.3445428819883883,-0.1939458348657164
-0.04208368765285996,-0.4999363471688487,-0.2051826915725119
-0.04207326765285996,-0.63888428363704,-0.1993940078144682
-0.04206284765285996,-0.7613866913927502,-0.1871356186797766
-0.04205242765285996,-0.8610667327720879,-0.1632998620289758
-0.04204200765285996,-0.9355750465303216,-0.1377615513317133
-0.04203158765285996,-0.9842403865976365,-0.1094991541600762
-0.04202116765285996,-1.002699653519752,-0.07919369213263139
-0.04201074765285996,-0.993973454611126,-0.05059078415168438
-0.04200032765285996,-0.9560480516620978,-0.0185827680777675
-0.04198990765285996,-0.8902659368124562,0.01138218314036746
-0.04197948765285996,-0.7993120943417261,0.04032560193062538
-0.04196906765285996,-0.6848646394247997,0.07097157476734038
-0.04195864765285996,-0.5512866715158942,0.09719090708319654
-0.04194822765285996,-0.4009275518595097,0.1268153474920464
-0.04193780765285996,-0.23949287204993,0.1543967230451025
-0.04192738765285996,-0.07067448547143521,0.1816375877888745
-0.04191696765285996,0.1001576393165871,0.2102404957698085
-0.04190654765285996,0.2672979107201924,0.2364598280856647
-0.04189612765285996,0.4273900983900596,0.2684678441595935
-0.04188570765285996,0.574728610731859,0.3096696520845291
-0.04187528765285996,0.7052859713263008,0.3777718139439267
-0.04186486765285996,0.8153703267889664,0.4666451351704406
-0.04185444765285996,0.9012898237354648,0.55279436992261
-0.04184402765285996,0.9623732160958186,0.6219180642098672
-0.04183360765285996,0.9945930274507305,0.6689085558928303
-0.04182318765285996,0.9982848808351639,0.6896797152599679
-0.04181276765285996,0.9734487762490747,0.6832100098833249
-0.04180234765285996,0.9204203367273885,0.6508614830000847
-0.04179192765285996,0.8408776774449499,0.5926341346103261
-0.04178150765285996,0.7364989135764333,0.5126140944255704
-0.04177108765285996,0.6109758985061513,0.4148874921572984
-0.04176066765285996,0.468336108653612,0.3042214791357772
-0.04175024765285996,0.3109289052633981,0.167336133798388
-0.04173982765285996,0.1451311259995053,0.03657998302834458
-0.04172940765285996,-0.02502975271877756,-0.07612909484900154
-0.04171898765285996,-0.1948550084019589,-0.1707910998335212
-0.04170856765285996,-0.3589746724910412,-0.1966699213400805
-0.04169814765285996,-0.5123543994619639,-0.20484218076322
-0.04168772765285996,-0.6509667128951374,-0.2010965618609531
-0.04167730765285996,-0.7711197594062176,-0.1833899997775097
-0.04166688765285996,-0.8684504395408914,-0.1622783296010965
-0.04165646765285996,-0.9412806381243901,-0.1343564432387562
-0.04164604765285996,-0.9865897478422886,-0.1054130244484995
-0.04163562765285996,-1.003370899589646,-0.07715062727684946
-0.04162520765285996,-0.9916240933664959,-0.04684516524941751
-0.04161478765285996,-0.9506780831029434,-0.01653970322198557
-0.04160436765285996,-0.8832178530785237,0.01206320475897615
-0.04159394765285996,-0.7902502723982051,0.04441173164217531
-0.04158352765285996,-0.6737890792715966,0.07063106395803147
-0.04157310765285996,-0.5378617501179475,0.1019580584133663
-0.04156268765285996,-0.3871670074266765,0.1291989231571254
-0.04155226765285996,-0.2243898354773082,0.1571208095194784
-0.04154184765285996,-0.0555714488988911,0.1853832066911284
-0.04153142765285996,0.1149250528543376,0.2112620281977122
-0.04152100765285996,0.2817297012229959,0.2391839145600525
-0.04151058765285996,0.4411506428228203,0.2711919306339549
-0.04150016765285996,0.5861397939200621,0.3134152709867959
-0.04148974765285996,0.7153546623747153,0.3849225409391634
-0.04147932765285996,0.8237609026626836,0.4744768837843102
-0.04146890765285996,0.9083379074693273,0.5599450969178152
-0.04145848765285996,0.9660650694802111,0.6273662371585884
-0.04144806765285996,0.9962711426254809,0.6712921315579305
-0.04143764765285996,0.9972780117303224,0.6896797152599679
-0.04142722765285996,0.969756922864656,0.6815074558368401
-0.04141680765285996,0.914379122098376,0.6467753532885474
-0.04140638765285996,0.8321514785362758,0.5858239184243496
-0.04139596765285996,0.7260945994930241,0.5044418350024062
-0.04138554765285996,0.5992290922830588,0.4046721678784341
-0.04137512765285996,0.4545755642207788,0.2933251332382736
-0.04136470765285996,0.2964971147606706,0.1543967230451025
-0.04135428765285996,0.1300280894268059,0.02568363713079048
-0.04134386765285996,-0.04080403536121643,-0.08532288669997717
-0.04133344765285996,-0.2096224219395568,-0.175558251163638
-0.04132302765285996,-0.3730708399588962,-0.1976914537679832
-0.04131260765285996,-0.5254436978249029,-0.204501669953923
-0.04130218765285996,-0.6623778960833405,-0.2004155402423592
-0.04129176765285996,-0.7801815813497907,-0.1813469349217278
-0.04128134765285996,-0.8761697693447077,-0.1592137323174116
-0.04127092765285996,-0.9463149836486305,-0.1329944000015555
-0.04126050765285996,-0.9889391090868993,-0.1030294487834342
-0.04125008765285996,-1.004042145659541,-0.07476705161177054
-0.04123966765285996,-0.9892747321218659,-0.04378056796574462
-0.04122924765285996,-0.9459793606136517,-0.01347510593829967
-0.04121882765285996,-0.876505392379623,0.01512780204263433
-0.04120840765285996,-0.7805172043847814,0.04645479649794299
-0.04119798765285996,-0.6623778960833405,0.07403617205101327
-0.04118756765285996,-0.5251080747899557,0.1036606124598512
-0.04117714765285996,-0.3730708399588962,0.1326040312500952
-0.04116672765285996,-0.2096224219396335,0.1581423419473693
-0.04115630765285996,-0.04046841232619205,0.1874262715469221
-0.04114588765285996,0.1293568433569892,0.2133050930534814
-0.04113546765285996,0.2964971147605946,0.2419080010344154
-0.04112504765285996,0.4545755642207788,0.2742565279176423
-0.04111462765285996,0.5988934692480539,0.3188634439355477
-0.04110420765285996,0.7260945994930723,0.392754289553035
-0.04109378765285996,0.832151478536324,0.482649143207399
-0.04108336765285996,0.9143791220983386,0.5664148022944201
-0.04107294765285996,0.9704281689345503,0.6321333884887768
-0.04106252765285996,0.9976136347652695,0.6740162180323064
-0.04105210765285996,0.9962711426254809,0.6900202260692647
-0.04104168765285996,0.9660650694802373,0.6798049017903551
-0.04103126765285996,0.9086735305042358,0.6423487127676577
-0.04102084765285996,0.8237609026626452,0.5793542130477436
-0.04101042765285996,0.7160259084446586,0.4966100863886131
-0.04100000765285996,0.5871466630249036,0.3954783760273701
-0.04098958765285996,0.4408150197879456,0.281747765722176
-0.04097916765285996,0.2817297012229959,0.1424788447197079
-0.04096874765285996,0.1152606758892089,0.0158088236612283
-0.04095832765285996,-0.05590707193391486,-0.09553821097892522
-0.04094790765285996,-0.2243898354773082,-0.1799848916845399
-0.04093748765285996,-0.3871670074266025,-0.1983724753865689
-0.04092706765285996,-0.5381973731528946,-0.2062042240004079
-0.04091664765285996,-0.6741247023064908,-0.1973509429586863
-0.04090622765285996,-0.7899146493633008,-0.1816874457310133
-0.04089580765285996,-0.8838890991484604,-0.1564896458430477
-0.04088538765285996,-0.9510137061378601,-0.1295892919085979
-0.04087496765285996,-0.9919597164014431,-0.1020079163555296
-0.04086454765285996,-1.003370899589646,-0.07102143270950367
-0.04085412765285996,-0.9862541248073415,-0.04207801391925968
-0.04084370765285996,-0.9412806381244232,-0.01143204108253075
-0.04083328765285996,-0.868450439540847,0.01955444256350771
-0.04082286765285996,-0.7707841363712704,0.04713581811655121
-0.04081244765285996,-0.6509667128951919,0.0788033233811567
-0.04080202765285996,-0.5126900224969111,0.1050226556970392
-0.04079160765285996,-0.3589746724911158,0.1349876069151741
-0.04078118765285996,-0.1948550084018817,0.1615474500403515
-0.04077076765285996,-0.02502975271870033,0.1884478039748013
-0.04076034765285996,0.144795502964481,0.2167102011464384
-0.04074992765285996,0.3109289052633981,0.2442915766995073
-0.04073950765285996,0.468336108653612,0.2766401035827212
-0.04072908765285996,0.6109758985061513,0.3249926385028935
-0.04071866765285996,0.736834536611333,0.4005860381668249
-0.04070824765285996,0.8408776774449861,0.4908214026305642
-0.04069782765285996,0.9204203367274247,0.573225018480398
-0.04068740765285996,0.9734487762490506,0.6369005398189057
-0.04067698765285996,0.998620503870111,0.6763997936973853
-0.04066656765285996,0.994257404415798,0.6903607368785618
-0.04065614765285996,0.9620375930608442,0.6777618369345548
-0.04064572765285996,0.9019610698053314,0.6372410506282316
-0.04063530765285996,0.8157059498239527,0.5732250184804271
-0.04062488765285996,0.7052859713263008,0.4880973161561508
-0.04061446765285996,0.574728610731859,0.3859440733670544
-0.04060404765285996,0.4270544753551124,0.2698298873967814
-0.04059362765285996,0.2676335337552156,0.1309014772036103
-0.04058320765285996,0.0998220162815624,0.003890945335783704
-0.04057278765285996,-0.07067448547151289,-0.1060940460670934
-0.04056236765285996,-0.2394928720498532,-0.1820279565402873
-0.04055194765285996,-0.4009275518595097,-0.1997345186237652
-0.04054152765285996,-0.5512866715158334,-0.204501669953923
-0.04053110765285996,-0.6848646394248518,-0.1973509429586777
-0.04052068765285996,-0.7993120943417782,-0.1786228484473519
-0.04051026765285996,-0.8902659368124148,-0.1527440269407926
-0.04049984765285996,-0.9557124286271507,-0.1285677594806947
-0.04048942765285996,-0.9936378315761788,-0.09792178664396572
-0.04047900765285996,-1.003706522624593,-0.06795683542583078
-0.04046858765285996,-0.9832335174928172,-0.03901341663558679
-0.04045816765285996,-0.9355750465302878,-0.008026932989546928
-0.04044774765285996,-0.861066732772054,0.02261903984716807
-0.04043732765285996,-0.7610510683578485,0.04985990459091473
-0.04042690765285996,-0.6395555297069343,0.08118689904625002
-0.04041648765285996,-0.4996007241339722,0.110130317836494
-0.04040606765285996,-0.3445428819883883,0.1356686285337681
-0.04039564765285996,-0.1804232178992314,0.1649525581333091
-0.04038522765285996,-0.009926716146001298,0.1921934228770801
-0.04037480765285996,0.15989853953718,0.2184127551929362
-0.04036438765285996,0.3253606957661256,0.2473561739831802
-0.04035396765285996,0.4810897839816038,0.2803857224849881
-0.04034354765285996,0.6227227047293016,0.3294192790237543
-0.04033312765285996,0.7465676046248468,0.4084177867806966
-0.04032270765285996,0.8485970072487344,0.4986531512443574
-0.04031228765285996,0.9261259283214911,0.5796947238570038
-0.04030186765285996,0.9768050065985462,0.6413271803397955
-0.04029144765285996,0.9992917499400052,0.6787833693624641
-0.04028102765285996,0.9929149122760094,0.6900202260692647
-0.04027060765285996,0.9576744936065585,0.6746972396509003
-0.04026018765285996,0.895248609106348,0.6324738992980438
-0.04024976765285996,0.8063085048453933,0.5664148022944582
-0.04023934765285996,0.6942104111730958,0.4795845459237656
-0.04022892765285996,0.5623105584388144,0.3760692598974417
-0.04021850765285996,0.4132939309222792,0.2585930306899809
-0.04020808765285996,0.2532017432524115,0.1186430880688624
-0.04019766765285996,0.08471897970901814,-0.00530284651518496
-0.04018724765285996,-0.08577752204405718,-0.1142663054901716
-0.04017682765285996,-0.2542602855876046,-0.1857735754425887
-0.04016640765285996,-0.4146880962923429,-0.2007560510516561
-0.04015598765285996,-0.5640403468438252,-0.205523202381814
-0.04014556765285996,-0.6959401995780556,-0.1942863456750134
-0.04013514765285996,-0.8080382932504449,-0.1765797835915585
-0.04012472765285996,-0.8973140205463465,-0.1513819837035929
-0.04011430765285996,-0.9604111511163822,-0.1251626513877367
-0.04010388765285996,-0.9959871928208088,-0.0958787217881838
-0.04009346765285996,-1.002699653519752,-0.06557325976075186
-0.04008304765285996,-0.9808841562481638,-0.03662984097049315
-0.04007262765285996,-0.9298694549362201,-0.004281314087293995
-0.04006220765285996,-0.8530117799333574,0.02295955065645267
-0.04005178765285996,-0.7509823773093884,0.05496756673038194
-0.04004136765285996,-0.6274731004488368,0.08288945309273496
-0.04003094765285996,-0.4865114257710333,0.111492361073682
-0.04002052765285996,-0.330446714520608,0.140095269054629
-0.04001010765285996,-0.165320181326532,0.1666551121798067
-0.03999968765285996,0.00517632042654328,0.1945769985421471
-0.03998926765285996,0.1750015761097246,0.2218178632858937
-0.03997884765285996,0.3397924862688531,0.2500802604575562
-0.03996842765285996,0.4938434593095955,0.2841313413872549
-0.03995800765285996,0.6348051339874543,0.3358889844004337
-0.03994758765285996,0.7563006726382678,0.4162495353944863
-0.03993716765285996,0.8569875831223674,0.506484899858147
-0.03992674765285996,0.9311602738457336,0.5861644292336834
-0.03991632765285996,0.9801612369480177,0.6457538208606564
-0.03990590765285996,0.9996273729749524,0.6808264342182462
-0.03989548765285996,0.9905655510313793,0.6900202260692647
-0.03988506765285996,0.9533113941522159,0.6716326423672075
-0.03987464765285996,0.8882005253724983,0.628047258777213
-0.03986422765285996,0.7972466829018616,0.5589235644899558
-0.03985380765285996,0.6834704740547359,0.4710717756913014
-0.03984338765285996,0.5495568831108226,0.36721597885572
-0.03983296765285996,0.3998690095243931,0.2463346415552893
-0.03982254765285996,0.2384343297148134,0.1070657205528211
-0.03981212765285996,0.0692803201015261,-0.01483714917544518
-0.03980170765285996,-0.1008805586167565,-0.1238006081505368
-0.03979128765285996,-0.2686920760903321,-0.1878166402983706
-0.03978086765285996,-0.4287842637601232,-0.2024586050981411
-0.03977044765285996,-0.5761227761019226,-0.204161159144626
-0.03976002765285996,-0.7073513827663087,-0.1929243024378171
-0.03974960765285996,-0.8171001151939773,-0.174536718735788
-0.03973918765285996,-0.9040264812452499,-0.1489984080385255
-0.03972876765285996,-0.9647742505707239,-0.1224385649133489
-0.03971834765285996,-0.9976653079955446,-0.0931546353138079
-0.03970792765285996,-1.001692784414911,-0.06250866247707897
-0.03969750765285996,-0.9771923028637685,-0.03356524368683497
-0.03968708765285996,-0.9241638633420823,-0.002578760040795738
-0.03967666765285996,-0.8446212040596437,0.02670516955873192
-0.03966624765285996,-0.741249309295968,0.05667012077685325
-0.03965582765285996,-0.6157262942256865,0.08697558280429882
-0.03964540765285996,-0.4730865043731473,0.1138759367387609
-0.03963498765285996,-0.3160149240178049,0.1428193555290171
-0.03962456765285996,-0.1498815217190406,0.1697197094634669
-0.03961414765285996,0.0202793569990877,0.1969605742072136
-0.03960372765285996,0.1894333666125293,0.224201438950985
-0.03959330765285996,0.3535530307016863,0.252804346931932
-0.03958288765285996,0.5072683807074816,0.2871959386709279
-0.03957246765285996,0.6462163171756021,0.3426992005863369
-0.03956204765285996,0.7663693636867266,0.4240812840083581
-0.03955162765285996,0.8637000438213562,0.514316648472019
-0.03954120765285996,0.937537111509696,0.5922936238009938
-0.03953078765285996,0.9828462212275949,0.6498399505722201
-0.03952036765285996,1.000298619044847,0.6832100098833249
-0.03950994765285996,0.9892230588915721,0.6896797152599585
-0.03949952765285996,0.9482770486280383,0.6692490667021485
-0.03948910765285996,0.8811524416386386,0.6229395966377793
-0.03947868765285996,0.7878492379233,0.5521133483039846
-0.03946826765285996,0.67239491390148,0.4625590054588767
-0.03945784765285996,0.5368032077828309,0.3573411653861074
-0.03944742765285996,0.3854372190216657,0.2333952308020037
-0.03943700765285996,0.2236669161770618,0.09616937465526253
-0.03942658765285996,0.05451290656377451,-0.02471196264511328
-0.03941616765285996,-0.1159835951893008,-0.1329944000015063
-0.03940574765285996,-0.2831238665930596,-0.1884976619169646
-0.03939532765285996,-0.4425448081929564,-0.2031396267167351
-0.03938490765285996,-0.588540828395026,-0.2034801375260265
-0.03937448765285996,-0.7177556968496205,-0.1912217483913405
-0.03936406765285996,-0.825826314102554,-0.1724936538800146
-0.03935364765285996,-0.9107389419442324,-0.1452527891362471
-0.03934322765285996,-0.9688017269900896,-0.119714478438973
-0.03933280765285996,-0.9990078001353332,-0.08906850560224404
-0.03932238765285996,-1.000685915310069,-0.05944406519340607
-0.03931196765285996,-0.9731648264443776,-0.03050064640314814
-0.03930154765285996,-0.9181226487130698,0.0001453264335668503
-0.03929112765285996,-0.8369018742558961,0.03011027765168818
-0.03928070765285996,-0.7308449952125594,0.05837267482335182
-0.03927028765285996,-0.6039794880025362,0.09004018008797171
-0.03925986765285996,-0.4593259599402423,0.1162595124038531
-0.03924944765285996,-0.3015831335151529,0.1455434420033808
-0.03923902765285996,-0.1347784851464947,0.1731248175564243
-0.03922860765285996,0.03538239357178689,0.1993441498723049
-0.03921818765285996,0.2045364031851511,0.2276065470439549
