Time (s),Channel 1 (V),Channel 2 (V)
-0.03365481025641025,-0.8875809525328791,-0.004962335705887971
-0.03365081025641026,-0.8553611411779671,0.003209923717236027
-0.03364681025641025,-0.8197850994735363,0.009339118284588006
-0.03364281025641026,-0.7798459583148617,0.01478729123333486
-0.03363881025641026,-0.7368862098416472,0.02159750741927091
-0.03363481025641026,-0.6912414770887956,0.0301102776517018
-0.03363081025641025,-0.6422405139864645,0.03726100464694383
-0.03362681025641025,-0.5905545666046257,0.04304968840499029
-0.03362281025641026,-0.5365192579781833,0.04951939378162719
-0.03361881025641025,-0.4804702111419573,0.05735114239546441
-0.03361481025641026,-0.4203936878864445,0.06518289100929159
-0.03361081025641026,-0.3609884107008527,0.07063106395803843
-0.03360681025641025,-0.2995693953054701,0.0760792369067952
-0.03360281025641025,-0.2354653956305065,0.08288945309274208
-0.03359881025641025,-0.1720326420255227,0.09072120170656849
-0.03359481025641026,-0.1062505271759409,0.09685039627390869
-0.03359081025641025,-0.04113965839613399,0.1029795908412599
-0.03358681025641026,0.02397121038358375,0.1087682745993061
-0.03358281025641026,0.08975332523316557,0.1169405340224263
-0.03357881025641025,0.1551998170479199,0.1254533042548585
-0.03357481025641025,0.218968193687936,0.1319230096315084
-0.03357081025641025,0.2820653242579713,0.139754758245337
-0.03356681025641026,0.3441555857231378,0.1506511041428307
-0.03356281025641025,0.4055746011185218,0.1669956229891019
-0.03355881025641026,0.4649798783041405,0.1908313796398802
-0.03355481025641026,0.5210289251402638,0.223860928141658
-0.03355081025641025,0.5753998568017533,0.2647222252573266
-0.03354681025641025,0.6280926732885228,0.3103506737031825
-0.03354281025641025,0.6770936363907613,0.3539360572931567
-0.03353881025641026,0.7237452382483729,0.3961593976459448
-0.03353481025641025,0.7667049867216664,0.437701716380231
-0.03353081025641026,0.8073153739502348,0.4754984162121623
-0.03352681025641026,0.843898284759441,0.5109115403790168
-0.03352281025641025,0.8767893421843084,0.5425790456436819
-0.03351881025641025,0.905988546224733,0.5708414428153539
-0.03351481025641026,0.9321671429505393,0.5963797535125581
-0.03351081025641026,0.9529757711172889,0.6168104020704031
-0.03350681025641025,0.9710994150044565,0.6348574749631646
-0.03350281025641026,0.9841887133673834,0.6477968857164382
-0.03349881025641026,0.9925792892410547,0.6566501667581518
-0.03349481025641025,0.9979492578002168,0.6624388505162094
-0.03349081025641025,0.9982848808351584,0.664141404562689
-0.03348681025641026,0.9942574044158035,0.6607362964697285
-0.03348281025641026,0.9862024515770664,0.6542665910930809
-0.03347881025641025,0.9744556453539008,0.6437107560048615
-0.03347481025641025,0.9576744936065585,0.6294093020144009
-0.03347081025641026,0.9378727345446856,0.6117027399309657
-0.03346681025641025,0.9133722529935212,0.5892290265173444
-0.03346281025641026,0.8841730489531457,0.5630096942015
-0.03345881025641026,0.8532957297380226,0.5357688294577539
-0.03345481025641026,0.816712818928755,0.5037608133838123
-0.03345081025641025,0.7781161699097935,0.4686882000261882
-0.03344681025641025,0.7351564214365972,0.4308915001942568
-0.03344281025641026,0.6891760656488584,0.391732757125121
-0.03343881025641025,0.6408463486164244,0.3515524816280394
-0.03343481025641026,0.5894960242695569,0.3093291412752513
-0.03343081025641026,0.5351250926081446,0.2654032468759606
-0.03342681025641026,0.4790760457719209,0.2231799065230941
-0.03342281025641025,0.4196707685862208,0.1836806526446084
-0.03341881025641025,0.3599298683656822,0.1452029311940838
-0.03341481025641026,0.2995177220752224,0.1084277637900258
-0.03341081025641025,0.2354137224002599,0.07437668286029742
-0.03340681025641026,0.1713097227254123,0.0461142856886731
-0.03340281025641026,0.1065344769806419,0.02125699661000272
-0.03339881025641026,0.04142360820083561,-0.001216716803621102
-0.03339481025641025,-0.02402288361391871,-0.02232838698004861
-0.03339081025641025,-0.08980499846353045,-0.03799188420770155
-0.03338681025641026,-0.1555871133131123,-0.05059078415167865
-0.03338281025641025,-0.2193554899531295,-0.06148713004919311
-0.03337881025641026,-0.2821169974882182,-0.07272398675598861
-0.03337481025641026,-0.3448785050232784,-0.08089624617910889
-0.03337081025641025,-0.4056262743487699,-0.08566339750927415
-0.03336681025641025,-0.4650315515344672,-0.08974952722084203
-0.03336281025641025,-0.521751844440509,-0.09417616774170041
-0.03335881025641026,-0.5764583991368449,-0.09758127583466719
-0.03335481025641025,-0.6291512156235951,-0.09826229745326241
-0.03335081025641026,-0.678823424795751,-0.09758127583466875
-0.03334681025641026,-0.7258106496883093,-0.09655974340677871
-0.03334281025641025,-0.7687703981615874,-0.09758127583466875
-0.03333881025641025,-0.8093807853902273,-0.09553821097888249
-0.03333481025641025,-0.847306188339236,-0.09077105964872727
-0.03333081025641026,-0.8805328687989737,-0.08702544074646382
-0.03332681025641025,-0.9097320728394025,-0.08362033265349099
-0.03332281025641026,-0.9352394234953745,-0.08089624617911632
-0.03331881025641026,-0.9570549207669194,-0.07510756242107279
-0.03331481025641025,-0.9748429416191383,-0.06863785704442475
-0.03331081025641025,-0.9889391090869315,-0.06387070571426182
-0.03330681025641026,-0.9983365540654262,-0.06012508681200515
-0.03330281025641026,-1.002364030484803,-0.05433640305395388
-0.03329881025641025,-1.004377768694485,-0.047185676058708
-0.03329481025641026,-1.001021538345016,-0.04003494906347775
-0.03329081025641026,-0.9936378315761855,-0.03526779773332425
-0.03328681025641025,-0.981555402318074,-0.03016013559386138
-0.03328281025641025,-0.9654454966405897,-0.02198787617072669
-0.03327881025641026,-0.9446368684739231,-0.01415612755691733
-0.03327481025641026,-0.920807632992647,-0.007686422180263877
-0.03327081025641025,-0.8926152980570579,-0.00291927085009892
-0.03326681025641025,-0.8614023558070012,0.004912477763724684
-0.03326281025641026,-0.8258263141026355,0.01342524799614164
-0.03325881025641025,-0.786894042048714,0.02023546418209147
-0.03325481025641026,-0.7435986705405708,0.02534312632154165
-0.03325081025641026,-0.6982895608227475,0.0314723208888814
-0.03324681025641026,-0.6502954668252431,0.03998509112131446
-0.03324281025641025,-0.5992807655132267,0.04713581811655678
-0.03323881025641025,-0.5449098338518376,0.053265012683897
-0.03323481025641026,-0.4888607870156888,0.05871318563264633
-0.03323081025641025,-0.4311336250047251,0.06586391262788943
-0.03322681025641026,-0.3690433635395586,0.0743766828603064
-0.03322281025641026,-0.3089668402840449,0.08084638823694715
-0.03321881025641026,-0.2455340866789787,0.08561353956711087
-0.03321481025641025,-0.1810944639690674,0.09242375575305775
-0.03321081025641025,-0.1169904642942198,0.1002555043668814
-0.03320681025641026,-0.05154397247955504,0.1067252097435212
-0.03320281025641025,0.01423814237014582,0.1125138935015756
-0.03319881025641026,0.07901338811488709,0.1183025772596191
-0.03319481025641026,0.1451311259994452,0.126474836682742
-0.03319081025641026,0.2092351256744112,0.1349876069151741
-0.03318681025641025,0.2726678792794793,0.1424788447197163
-0.03318281025641025,0.3347581407446736,0.1516726365707326
-0.03317881025641026,0.3958415331049996,0.1649525581333031
-0.03317481025641025,0.4545755642208051,0.1877667823562219
-0.03317081025641026,0.5123027262316626,0.2197747984301096
-0.03316681025641026,0.5670092809280247,0.2585930306899455
-0.03316281025641026,0.6200377204497244,0.3028594358985893
-0.03315881025641025,0.6703811756918386,0.3478068627258298
-0.03315481025641025,0.7160259084446298,0.3896896922693401
-0.03315081025641026,0.7603281490576135,0.4312320110035349
-0.03314681025641025,0.8012741593212032,0.4690287108355359
-0.03314281025641026,0.838863939235267,0.5051228566210002
-0.03313881025641026,0.871419373625111,0.5374713835041848
-0.03313481025641025,0.9026323158752257,0.5670958239130521
-0.03313081025641025,0.9278040434962825,0.5919531129917517
-0.03312681025641025,0.9502907868377294,0.6134052939774507
-0.03312281025641026,0.9684144307248591,0.6317928776794716
-0.03311881025641025,0.981503729087811,0.6460943316699572
-0.03311481025641026,0.991908043171168,0.6549476127116751
-0.03311081025641026,0.9976136347652643,0.6614173180883119
-0.03310681025641025,0.9982848808351639,0.6638008937533968
-0.03310281025641025,0.9952642735206298,0.6617578288976064
-0.03309881025641025,0.988216189786744,0.6556286343302644
-0.03309481025641026,0.9764693835636044,0.6454133100513639
-0.03309081025641025,0.9613663469909589,0.631452366870167
-0.03308681025641026,0.9412289648941481,0.6140863155960365
-0.03308281025641026,0.9163928603080814,0.5929746454196424
-0.03307881025641025,0.8902142635821811,0.56845786715024
-0.03307481025641025,0.8573232061573127,0.5391739375506571
-0.03307081025641026,0.8224184105229042,0.5085279647140121
-0.03306681025641026,0.7844930075738457,0.4744768837842868
-0.03306281025641025,0.7415332591005525,0.4377017163801604
-0.03305881025641026,0.696895395452622,0.397861951692449
-0.03305481025641026,0.6482300553853294,0.3573411653861442
-0.03305081025641025,0.5975509771082408,0.3161393574611526
-0.03304681025641025,0.543851291516645,0.2739160171082858
-0.03304281025641026,0.4881378677155699,0.2303306335183903
-0.03303881025641026,0.4297394596346896,0.1887883147840983
-0.03303481025641025,0.3699985594140409,0.1503105933335058
-0.03303081025641025,0.308579544018768,0.1142164475480579
-0.03302681025641026,0.2454824134487323,0.08084638823696821
-0.03302281025641025,0.1817140368087152,0.0495193937816179
-0.03301881025641026,0.1166031680290271,0.0226190398471803
-0.03301481025641026,0.05149229924930937,0.001507369670774004
-0.03301081025641026,-0.01428981560039149,-0.01824225726847051
-0.03300681025641025,-0.0797363074151449,-0.03662984097052211
-0.03300281025641025,-0.1445115531598862,-0.05229333819816932
-0.03299881025641026,-0.2096224219396039,-0.06284917328637116
-0.03299481025641025,-0.2730551755446733,-0.07238347594669549
-0.03299081025641026,-0.3351454370098398,-0.08089624617911245
-0.03298681025641026,-0.396228829370194,-0.08872799479293993
-0.03298281025641026,-0.4559697295908425,-0.09349514612310489
-0.03297881025641025,-0.5130256455319083,-0.09485718936029469
-0.03297481025641025,-0.5680678232631911,-0.09690025421607476
-0.03297081025641026,-0.6214318858197637,-0.09996485149974627
-0.03296681025641025,-0.6711040949919884,-0.1003053623090437
-0.03296281025641026,-0.7194338120243343,-0.09826229745326365
-0.03295881025641026,-0.761386691392712,-0.09587872178818596
-0.03295481025641026,-0.8043464398659855,-0.09485718936029283
-0.03295081025641025,-0.8412649737102033,-0.09349514612310149
-0.03294681025641025,-0.875498523274795,-0.08974952722083553
-0.03294281025641026,-0.9050333503501174,-0.08430135427208868
-0.03293881025641025,-0.9318831931459132,-0.08021522456052112
-0.03293481025641026,-0.9543699364873621,-0.07749113808614644
-0.03293081025641026,-0.9721579573395449,-0.07306449756528963
-0.03292681025641025,-0.9872609939121829,-0.06557325976075186
-0.03292281025641025,-0.9969940619256549,-0.05944406519340205
-0.03291881025641025,-1.002028407449859,-0.05501742467254336
-0.03291481025641026,-1.004713391729434,-0.05093129496098323
-0.03291081025641025,-1.001021538345013,-0.04344005715644422
-0.03290681025641026,-0.9946447006810203,-0.03594881935191389
-0.03290281025641026,-0.9828978944578807,-0.029479113975277
-0.03289881025641025,-0.9681304809201953,-0.02471196264511328
-0.03289481025641026,-0.9483287218583224,-0.01858276807777028
-0.03289081025641025,-0.9251707324469473,-0.009729487036042863
-0.03288681025641026,-0.8973140205463591,-0.003259781659405973
-0.03288281025641025,-0.8654298322263516,0.002528902098648555
-0.03287881025641026,-0.8315319056967048,0.008658096665991554
-0.03287481025641026,-0.7925996336428707,0.01717086689840851
-0.03287081025641025,-0.7509823773093884,0.02432159389365301
-0.03286681025641026,-0.7053376445565966,0.0314723208888865
-0.03286281025641025,-0.6580147966290041,0.03623947221905069
-0.03285881025641026,-0.6063288492471898,0.04304968840498426
-0.03285481025641025,-0.5539716557953593,0.05190296944671524
-0.03285081025641026,-0.4975869859242893,0.05871318563264881
-0.03284681025641026,-0.4388529548085912,0.06416135858139567
-0.03284281025641025,-0.3794476776228641,0.06960953153015599
-0.03283881025641026,-0.3180286622275913,0.07744128014397959
-0.03283481025641025,-0.2545959086225229,0.08527302875781667
-0.03283081025641026,-0.1911631550175691,0.09140222332515688
-0.03282681025641025,-0.1267235323076276,0.09650988546462037
-0.03282281025641026,-0.06127704049299267,0.1029795908412573
-0.03281881025641026,0.004169451321642301,0.1111518502643775
-0.03281481025641025,0.06995156617137294,0.118643088068921
-0.03281081025641026,0.1347268119161142,0.1237507502083712
-0.03280681025641025,0.1991664346260257,0.1315824988222085
-0.03280281025641026,0.2629348112659555,0.1407762906732229
-0.03279881025641025,0.3260319418360755,0.1506511041428465
-0.03279481025641025,0.3871153341964014,0.1625689824682302
-0.03279081025641026,0.4451781192422322,0.1816375877888529
-0.03278681025641025,0.5042477733929822,0.2136456038627962
-0.03278281025641026,0.5592899511242651,0.2528043469319142
-0.03277881025641025,0.6113115215411213,0.296049219712669
-0.03277481025641026,0.6616549767831711,0.33895358168407
-0.03277081025641025,0.7099846938156013,0.3839010085113096
-0.03276681025641025,0.7542869344285849,0.424762305626911
-0.03276281025641026,0.7955685677270657,0.4646020703146406
-0.03275881025641025,0.8328227246062339,0.5003557052908572
-0.03275481025641026,0.8670562741708121,0.5327042321740416
-0.03275081025641026,0.8986048394558313,0.5630096942014606
-0.03274681025641026,0.9237765670768963,0.5885480048987624
-0.03274281025641025,0.9476058025581607,0.6110217183123801
-0.03273881025641025,0.9660650694802373,0.6290687912051038
-0.03273481025641026,0.9801612369480113,0.6433702451955708
-0.03273081025641025,0.9905655510313822,0.6546071019023811
-0.03272681025641026,0.9969423886953723,0.6614173180883147
-0.03272281025641026,0.9986205038701095,0.6638008937533946
-0.03271881025641026,0.9959355195905337,0.6617578288976147
-0.03271481025641025,0.9895586819265276,0.6566501667581518
-0.03271081025641025,0.9781474987383283,0.6477968857164322
-0.03270681025641026,0.9640513312705609,0.6345169641538617
-0.03270281025641025,0.9442495722086621,0.6168104020704029
-0.03269881025641026,0.9214272058322662,0.5960392427032961
-0.03269481025641026,0.8939061169666248,0.5722034860525286
-0.03269081025641025,0.8633644207864091,0.544962621308748
-0.03268681025641025,0.8281240021169234,0.5129546052348001
-0.03268281025641025,0.7898629761329645,0.4789035243051161
-0.03267881025641026,0.7492525889043961,0.4434904001382615
-0.03267481025641025,0.7042791022214373,0.4053531894969635
-0.03267081025641026,0.6556137621541224,0.3631298491441562
-0.03266681025641026,0.6056059299470424,0.3236305952657415
-0.03266281025641025,0.5529131134602941,0.2780021468199091
-0.03265881025641026,0.4958571975193043,0.2398649361786638
-0.03265481025641025,0.4388012815782357,0.19457699854213
-0.03265081025641026,0.379396004392644,0.1571208095194954
-0.03264681025641025,0.3186482350671537,0.1176215556410127
-0.03264281025641026,0.255215481462171,0.08459200713921991
-0.03263881025641026,0.1914471048222702,0.05667012077689228
-0.03263481025641025,0.1270074821123592,0.02670516955873192
-0.03263081025641026,0.06122536726274747,0.003890945335844092
-0.03262681025641025,-0.003549878482112567,-0.01722072484058713
-0.03262281025641026,-0.06933199333169437,-0.03390575449612437
-0.03261881025641025,-0.1344428621115309,-0.04684516524943175
-0.03261481025641026,-0.199553730891219,-0.06250866247707897
-0.03261081025641026,-0.2633221075311197,-0.07238347594668264
-0.03260681025641025,-0.3257479920313758,-0.07919369213263418
-0.03260281025641026,-0.3871670074266486,-0.08532288669997438
-0.03259881025641025,-0.4469079076472955,-0.09111157045802845
-0.03259481025641026,-0.5042994466232323,-0.09655974340677778
-0.03259081025641025,-0.5606841164944013,-0.09792178664396542
-0.03258681025641025,-0.6130413099461093,-0.09758127583466875
-0.03258281025641026,-0.6637203882231061,-0.09894331907185606
-0.03257881025641025,-0.7120501052555386,-0.0996243406904499
-0.03257481025641026,-0.7553454767636818,-0.0979217866439665
-0.03257081025641025,-0.7979696022020069,-0.09485718936029128
-0.03256681025641026,-0.8358950051510178,-0.09145208126732296
-0.03256281025641025,-0.8691216856108147,-0.08906850560224218
-0.03255881025641025,-0.901005873930765,-0.08702544074646211
-0.03255481025641026,-0.927520093691578,-0.08157726779771277
-0.03255081025641025,-0.9513493291728462,-0.07646960565825299
-0.03254681025641026,-0.9698085960949226,-0.07102143270950614
-0.03254281025641026,-0.9849116326675391,-0.06829734623513024
-0.03253881025641026,-0.9956515697858617,-0.06284917328637596
-0.03253481025641025,-1.00202840744986,-0.0543364030539463
-0.03253081025641025,-1.005049014764382,-0.04888823010519944
-0.03252681025641026,-1.002028407449859,-0.04412107877504377
-0.03252281025641025,-0.9953159467509098,-0.03799188420769242
-0.03251881025641026,-0.9849116326675577,-0.03050064640316549
-0.03251481025641026,-0.9711510882347322,-0.02334991940793183
-0.03251081025641026,-0.9516849522077849,-0.01722072484057954
-0.03250681025641025,-0.9285269627964073,-0.01211306270111822
-0.03250281025641025,-0.9020127430355926,-0.0049623357058841
-0.03249881025641026,-0.8714710468554296,0.003550434526532861
-0.03249481025641025,-0.8369018742558419,0.01036065071247882
-0.03249081025641026,-0.7989764713068311,0.01546831285193132
-0.03248681025641026,-0.7573592149734222,0.02193801822856821
-0.03248281025641025,-0.7120501052555189,0.02976976684240482
-0.03247881025641025,-0.6660697494677122,0.0379420262655381
-0.03247481025641025,-0.6143838020858738,0.04407122083288064
-0.03247081025641026,-0.5613553625642721,0.04917888297233081
-0.03246681025641025,-0.5066488078678359,0.0566701207768706
-0.03246281025641026,-0.4485860228220052,0.0648423801999946
-0.03245881025641026,-0.3888451226014666,0.07165259638592816
-0.03245481025641025,-0.3284329763109251,0.0764197477160922
-0.03245081025641026,-0.2653358457408893,0.08254894228343519
-0.03244681025641025,-0.2012318460659253,0.09004018008797511
-0.03244281025641026,-0.136456600321184,0.09753141789250205
-0.03243881025641025,-0.07168135457632444,0.1029795908412598
-0.03243481025641026,-0.005899239726712711,0.1084277637900091
-0.03243081025641026,0.0598828751228691,0.115919001594536
-0.03242681025641025,0.1239868747978348,0.1244317718269675
-0.03242281025641026,0.1897689896474465,0.131582498822201
-0.03241881025641025,0.2532017432525164,0.1380522041988514
-0.03241481025641026,0.3156276277526298,0.1475865068591584
-0.03241081025641025,0.3777178892179355,0.1608664284217629
-0.03240681025641026,0.4374587894384741,0.1802755445516736
-0.03240281025641026,0.4951859514493316,0.2081974309140012
-0.03239881025641025,0.5502281291807415,0.2456536199367151
-0.03239481025641026,0.6042634378071837,0.28923900352669
-0.03239081025641025,0.6546068930493025,0.3338459195446349
-0.03238681025641026,0.7019297409768077,0.3770907923253131
-0.03238281025641025,0.7479100967646259,0.4182926002503045
-0.03237881025641026,0.7885204839931943,0.4581323649380159
-0.03237481025641026,0.8277883790819752,0.4945670215327604
-0.03237081025641025,0.8626931747165286,0.5289586132718027
-0.03236681025641026,0.8932348708966916,0.5582425428713171
-0.03236281025641025,0.9200847136924885,0.584461875187209
-0.03235881025641026,0.9439139491737253,0.6079571210286907
-0.03235481025641025,0.962708839130781,0.6270257263493356
-0.03235081025641025,0.9794899908781234,0.6420082019583895
-0.03234681025641026,0.9885518128216924,0.652904547855888
-0.03234281025641025,0.9962711426254817,0.660395785660428
-0.03233881025641026,0.9979492578002159,0.6631198721348016
-0.03233481025641025,0.9962711426254784,0.6627793613255035
-0.03233081025641026,0.9909011740663265,0.6580122099953478
